time,x,y,z,phi,theta,psi,x_velocity,y_velocity,z_velocity,phi_velocity,theta_velocity,psi_velocity,rotor_speed1,rotor_speed2,rotor_speed3,rotor_speed4
0.06,-3.2520757105e-06,3.08040734141e-05,10.0699259972,0.00213924721634,0.000275533837468,0.0,-0.000207147026581,0.00188591784848,2.3292265072,0.0148671274957,0.00467411320084,0.0,899.864890713,900.054015166,899.381954986,899.983710427
0.12000000000000001,-6.76568368468e-05,0.000346947672751,10.2789225075,0.0032746317938,0.00223331022166,0.0,-0.0027164368056,0.00910399495702,4.63103996555,0.0192027383283,0.0177121385798,0.0,899.545421311,900.073030558,899.565207814,899.740504258
0.18,-0.000470034838165,0.00121724030529,10.6244456018,0.00634610354996,0.00559360883444,0.0,-0.0120066431788,0.0210907301669,6.8757677941,0.0332262692687,0.0331598879117,0.0,899.527025348,900.152121483,899.391689737,899.9592362
0.23999999999999996,-0.00173449372997,0.00305719970355,11.1022210216,0.00972688463317,0.0111943086595,0.0,-0.0322363088057,0.0414621495488,9.03562164261,0.0449839522013,0.0528109543121,0.0,899.427201398,900.222703704,899.469722593,899.945671313
0.3,-0.00463954577783,0.00636210192309,11.7064364463,0.0126503555684,0.0167931112121,0.0,-0.0664997914722,0.0696400315967,11.087293428,0.0491103450657,0.0687296156216,0.0,899.332541548,899.977644227,899.900068959,900.067184446
0.36000000000000004,-0.0100127877901,0.0115452647489,12.4300417698,0.0156883426215,0.024722936623,0.0,-0.115106491507,0.104007088011,13.0129044595,0.0443881478372,0.0889340441419,0.0,899.299224173,900.118736615,900.363572148,900.172575432
0.4200000000000001,-0.0187904533324,0.01894746628,13.2650129201,0.0183533425051,0.0319908410054,0.0,-0.179415991006,0.143312070745,14.7979480617,0.0444708403146,0.103006518371,0.0,899.417891356,899.99035571,900.228520419,900.231893865
0.48000000000000015,-0.0318075009218,0.0288164536274,14.2026930079,0.0210196852705,0.0394084693797,0.0,-0.256144084103,0.186103428967,16.4357558802,0.0443713510799,0.114049668318,0.0,899.692787129,900.143594658,900.316327297,900.312327127
0.5400000000000001,-0.0497425180102,0.0413443327709,15.2340891881,0.0247092479908,0.0463037776793,0.0,-0.342892327663,0.232096263864,17.9217588894,0.0543387071342,0.115627664613,0.0,899.82641508,899.894736624,899.927028085,900.330652678
0.6000000000000002,-0.073108843538,0.0567468285436,16.350165394,0.0279935874366,0.0533174742794,0.0,-0.436944264533,0.28168730164,19.2589281659,0.0552175566689,0.117677526285,0.0,899.887239565,899.974841432,900.225263831,900.26117232
0.6600000000000003,-0.102298076328,0.0752299945041,17.5421111189,0.0356037234388,0.0604427577522,0.0,-0.536793688863,0.335719736076,20.4516984411,0.0767568819409,0.113444106949,0.0,900.129863754,899.963040613,899.704594711,900.57729735
0.7200000000000003,-0.137612294528,0.0972268741437,18.8014577235,0.045214495764,0.0673591073602,0.0,-0.640857799966,0.399007112747,21.5069399116,0.100093826709,0.108421682224,0.0,900.07536972,899.876126418,899.498260335,900.44519889
0.7800000000000004,-0.179256374154,0.123313377707,20.120267241,0.0547951737241,0.0739158292167,0.0,-0.747538808261,0.471738243354,22.4353093171,0.119640432619,0.109980042749,0.0,900.082465927,900.149429408,899.513861708,900.309148398
0.8400000000000004,-0.227352086858,0.153985148639,21.4912610109,0.0626250571094,0.0807213579616,0.0,-0.85587832586,0.551276437954,23.2480167665,0.127362522067,0.103656079576,0.0,900.358198271,900.105931911,899.91074407,900.228653458
0.9000000000000005,-0.281982856926,0.189569562319,22.9078019988,0.0739494260881,0.0871437480649,0.0,-0.965227197814,0.635945368993,23.9552257749,0.147217730437,0.0973756990895,0.0,900.089742081,899.838592146,899.93866082,900.74902048
0.9600000000000005,-0.343182139552,0.230435944384,24.3639003588,0.0840158835583,0.0932400212826,0.0,-1.07471045083,0.726934061416,24.5682048867,0.158241751549,0.101822185543,0.0,899.948457784,900.131492351,900.075511418,900.530597086
1.0200000000000005,-0.410945068116,0.27689278686,25.8542232137,0.0944996382499,0.0993550068192,0.0,-1.18402853738,0.822222105525,25.0975923299,0.16800214825,0.099165628607,0.0,900.049493788,899.945048481,900.174859552,900.580303689
1.0800000000000005,-0.485260948793,0.329182407318,27.3740361181,0.105482784501,0.105619567653,0.0,-1.29319051201,0.921319658006,25.5526758899,0.177279845079,0.0917044146494,0.0,900.019320982,899.719890222,900.068804968,900.456266368
1.1400000000000006,-0.566130219038,0.387528201043,28.9192216416,0.116107908759,0.11158900362,0.0,-1.40242427297,1.02397095556,25.9446250881,0.176285368511,0.098086888688,0.0,899.972804803,900.233827689,900.365599213,900.338125341
1.2000000000000006,-0.653560189265,0.452115475645,30.4862115825,0.12667406773,0.118982363779,0.0,-1.51212820628,1.12930806433,26.2806956686,0.175440743195,0.110392567955,0.0,899.990595533,900.492105213,900.216557485,900.19498842
1.2600000000000007,-0.747622995807,0.523094201337,32.0718715204,0.137688149973,0.12679935087,0.0,-1.62361338885,1.23702810372,26.5680476045,0.181982957097,0.121219105384,0.0,899.823288643,900.266113064,900.075710264,900.353518207
1.3200000000000007,-0.848448455395,0.60061397509,33.6734940238,0.149688683568,0.135785513986,0.0,-1.73775465159,1.347420907,26.8137844206,0.192237327154,0.1344059853,0.0,899.657653537,900.19738075,899.951005615,900.380499783
1.3800000000000008,-0.956241476739,0.684849089362,35.2887806325,0.16176566081,0.14659210988,0.0,-1.8561524623,1.46086734295,27.0243799341,0.19919522205,0.151385079537,0.0,899.589846205,900.284917063,899.883318063,900.181037414
1.4400000000000008,-1.07129993442,0.775981929272,36.9157919594,0.173760267682,0.155803207709,0.0,-1.97974705937,1.57732805533,27.2052646288,0.195426818899,0.154283097358,0.0,899.945586662,900.071945418,899.967198857,899.831117235
1.5000000000000009,-1.19390223435,0.874188621064,38.5528678409,0.18598537287,0.165169237515,0.0,-2.10768250102,1.69668409374,27.3604905773,0.186390911827,0.149270666479,0.0,900.100687277,899.906695844,899.977247143,899.626722486
1.560000000000001,-1.32433297452,0.979643544267,40.1985893608,0.197396762118,0.176987676459,0.0,-2.24109128833,1.81888074058,27.4939894599,0.179823665907,0.129498166938,0.0,900.232724805,899.43943052,900.011176826,899.759198243
1.620000000000001,-1.46295815168,1.09250613289,41.8517480814,0.208210771326,0.184754957294,0.0,-2.38023280221,1.94353073863,27.6086254333,0.180718584927,0.127234984645,0.0,899.681157494,899.595405489,899.99889565,900.048471793
1.680000000000001,-1.61003626223,1.21292497567,43.5112889784,0.221421141488,0.192625315752,0.0,-2.52294917408,2.0709713736,27.7072954524,0.162620367918,0.120575962293,0.0,899.93357725,899.669334561,900.336872913,899.616256798
1.740000000000001,-1.76579494494,1.34108681435,45.17633249,0.231333666926,0.20098424992,0.0,-2.66963234591,2.20137358439,27.7920873455,0.156938442973,0.107697671072,0.0,900.194668226,899.677618275,899.959718303,899.739757043
1.8000000000000012,-1.93048469526,1.47713254491,46.8460745704,0.240842587762,0.209882287903,0.0,-2.82075156911,2.33376033828,27.8641586108,0.152194046822,0.0893570138965,0.0,900.450967336,899.711396842,899.935170614,899.752393085
1.8600000000000012,-2.10435921882,1.62117065096,48.5197604934,0.249966634569,0.215250931606,0.0,-2.97526926556,2.46774324327,27.9236112837,0.150264626267,0.0866373642983,0.0,900.02131616,899.91331312,899.787763393,899.718469229
1.9200000000000013,-2.28754591087,1.77329272348,50.1966589523,0.258972446405,0.221147653532,0.0,-3.13124561138,2.60324831694,27.971478577,0.14857966373,0.0946704482642,0.0,899.780234711,900.107838051,899.6529424,899.593285761
1.9800000000000013,-2.48015226331,1.93359477171,51.8761158723,0.268902169062,0.227510544632,0.0,-3.28936821667,2.74049479607,28.0091835521,0.158479873347,0.102600132166,0.0,899.637724136,899.961812233,899.321425504,899.731552576
2.0400000000000014,-2.68233901525,2.10220752882,53.5576028806,0.280687449211,0.235220396928,0.0,-3.45083711908,2.88042171808,28.0395081983,0.17385054451,0.115107286591,0.0,899.582701365,900.093037342,899.139762103,899.773360335
2.1000000000000014,-2.89436100325,2.27931444563,55.2407289704,0.292855247392,0.245926900737,0.0,-3.61765018076,3.02369331566,28.0640605297,0.187135776264,0.135294641137,0.0,899.39177362,900.214790695,899.003261015,899.554822957
2.1600000000000015,-3.11660909427,2.46512533745,56.9251860333,0.305585271314,0.25571097031,0.0,-3.79159888578,3.17057344682,28.0839429901,0.199412991851,0.148285657602,0.0,899.550610829,900.084173427,898.76618796,899.279325053
2.2200000000000015,-3.34950269619,2.65987501707,58.6107563902,0.318336358772,0.264771745023,0.0,-3.9724105762,3.32162708128,28.1011426788,0.207999446337,0.142493653068,0.0,900.110363093,899.883924234,899.00783791,899.373349912
2.2800000000000016,-3.59342627621,2.86380589076,60.2972621642,0.331897537607,0.273358728702,0.0,-4.15919896168,3.47664176797,28.1151976551,0.218251846903,0.143727087903,0.0,899.875063902,899.932723694,899.275281957,899.710019432
2.3400000000000016,-3.84873542555,3.07716577497,61.9845448238,0.34499950164,0.282036257636,0.0,-4.35191364885,3.63587564042,28.1269744988,0.218555686375,0.145338781104,0.0,900.142955161,900.216093298,899.627531981,899.660535548
2.4000000000000017,-4.11577424383,3.30018698519,63.6724231542,0.358954896416,0.290891200754,0.0,-4.55024494643,3.79872591879,28.1351697959,0.227477979072,0.139943151616,0.0,900.294704768,900.083988679,899.46816379,899.851059145
2.4600000000000017,-4.39489744659,3.53310262292,65.3607274357,0.37286569022,0.300131736315,0.0,-4.75477562911,3.96566531014,28.1411587621,0.232012117405,0.128607472205,0.0,900.580538465,900.128425418,899.704374989,899.911076964
2.520000000000002,-4.68648413396,3.7761476183,67.0493068633,0.387450455688,0.310445340423,0.0,-4.96588325347,4.13640664967,28.1444514941,0.239817712286,0.109712116427,0.0,900.650403685,899.890546695,899.825344163,900.165788546
2.580000000000002,-4.99093171474,4.02953576782,68.7379698241,0.402028172881,0.319141682211,0.0,-5.18320290972,4.31038986985,28.1438849322,0.243523514387,0.092540459532,0.0,900.299361858,899.607240032,899.801032366,899.976948277
2.640000000000002,-5.30857129292,4.29346438886,70.4265039697,0.416674398771,0.326556114763,0.0,-5.40540010165,4.48771559393,28.1401140007,0.244692921424,0.0763439381461,0.0,900.263748958,899.609764555,899.803921437,899.877780448
2.700000000000002,-5.63966310757,4.56813697153,72.1147336564,0.431439822675,0.332994022874,0.0,-5.63144791532,4.66849144598,28.1337130151,0.240099353481,0.0601664902321,0.0,900.203353079,899.549092069,900.208259669,900.048527828
2.760000000000002,-5.98438497727,4.85374264339,73.8024711423,0.446101831743,0.336614307895,0.0,-5.85926015976,4.85207583561,28.1235999776,0.244569596607,0.057330339323,0.0,900.062526905,899.948159393,899.88586803,900.092854342
2.820000000000002,-6.34277738705,5.15044337127,75.4894904546,0.461387487421,0.341018669153,0.0,-6.08728160654,5.03838067944,28.1099351725,0.252017918454,0.0669552906454,0.0,899.822672864,900.213068532,899.833625773,900.162550981
2.880000000000002,-6.71487918922,5.45840857613,77.1756011079,0.4767396772,0.345267495323,0.0,-6.31623419873,5.22755228599,28.0933471221,0.256217901285,0.0711606812938,0.0,899.868372807,900.039634565,899.906868133,900.105797149
2.940000000000002,-7.10074885086,5.77781451621,78.8606454306,0.492227397161,0.349588465203,0.0,-6.54623360223,5.41973489171,28.0744269676,0.258915133419,0.0727171955468,0.0,900.075883882,900.140014169,899.875134239,900.014142743
3.000000000000002,-7.50044816325,6.10883455837,80.5444782012,0.507828824524,0.354068871931,0.0,-6.77725248569,5.61468557731,28.0529986131,0.260783678183,0.0754571155678,0.0,900.089759989,900.201919242,899.801347518,899.907421064
3.0600000000000023,-7.91405379305,6.45164595007,82.2269777346,0.524036612589,0.358632759757,0.0,-7.00982611873,5.81280578447,28.0300766642,0.2678726763,0.0718450601508,0.0,900.287369813,900.142341851,899.824632336,900.143077889
3.1200000000000023,-8.34167074608,6.80645211037,83.9080857896,0.540170819235,0.362949993034,0.0,-7.24423990292,6.01446719125,28.0065716226,0.269648455377,0.0691532662895,0.0,900.485902576,900.377982611,900.122899231,900.22751852
3.1800000000000024,-8.78337999276,7.1734315357,85.5877158075,0.556357658603,0.367087778106,0.0,-7.47954880382,6.21857110072,27.9808351205,0.266898771536,0.0676855466405,0.0,900.339042223,900.280550623,900.189767787,900.111196032
3.2400000000000024,-9.23923888827,7.55273045591,87.2657418324,0.572536929936,0.3720807067,0.0,-7.71601894799,6.42509610839,27.9531076065,0.270310643888,0.0558430573837,0.0,900.567272294,900.088491664,899.971743413,900.142526264
3.3000000000000025,-9.70933252914,7.94449410713,88.9420537359,0.590047771132,0.376146020392,0.0,-7.95399964006,6.63416326036,27.9239345087,0.281619165835,0.045304309002,0.0,900.575378249,900.148950875,899.678475756,900.170789847
3.3600000000000025,-10.1937472194,8.34890007119,90.616619048,0.607916095873,0.379281048222,0.0,-8.19327533869,6.84650344965,27.8949309205,0.291279383705,0.0369311093782,0.0,900.515779317,900.176747923,899.765366982,900.193889893
3.4200000000000026,-10.6925454722,8.76614726304,92.2894616149,0.626490921731,0.382308426977,0.0,-8.43348964986,7.06224790864,27.8666360097,0.30161917588,0.0257901193092,0.0,900.477402141,900.026102093,899.911276201,900.370113036
3.4800000000000026,-11.2057953971,9.19646569624,93.9606803058,0.650448991318,0.38389058962,0.0,-8.67524691753,7.28281533093,27.8419034682,0.326964290036,0.0222214065922,0.0,900.336593294,900.191840025,899.584339859,900.655558251
3.5400000000000027,-11.7336357388,9.6402486261,95.6306758954,0.673665443854,0.385375397205,0.0,-8.9197218606,7.51088877906,27.8256119228,0.346577317052,0.0165916587068,0.0,900.246451779,900.018208874,899.963687743,900.81011996
3.6000000000000028,-12.2762074821,10.0979112055,97.2999059049,0.696843576732,0.386969027956,0.0,-9.16628370479,7.7453982834,27.8163239913,0.362329707721,0.00683510736077,0.0,900.496695438,900.101442017,899.951517398,900.648079166
3.660000000000003,-12.8336252731,10.5698220836,98.9687778695,0.721334396645,0.387509469982,0.0,-9.41457533182,7.98597873845,27.8139666268,0.379336259513,0.00150243314228,0.0,900.307983232,900.091937412,899.919188,900.672457364
3.720000000000003,-13.4059995516,11.0563793084,100.637766291,0.744822162724,0.388220405502,0.0,-9.66473949081,8.23338544354,27.8199386826,0.387554756484,-0.00841146179771,0.0,900.426298612,900.024894162,900.255100469,900.657844912
3.780000000000003,-13.993428123,11.5579594744,102.307332204,0.768063821299,0.388629518318,0.0,-9.91632584039,8.48665738046,27.8331732579,0.386126230813,-0.0201515984027,0.0,900.548143874,900.072999914,900.693899269,900.708062226
3.840000000000003,-14.5959730635,12.0748887534,103.977892788,0.791246512936,0.387609179395,0.0,-10.1684523237,8.74499234462,27.8531303658,0.386729281209,-0.016443341178,0.0,900.471010188,900.621365879,900.624563126,900.720653913
3.900000000000003,-15.2136416845,12.607448393,105.649844543,0.81481293638,0.388369129494,0.0,-10.4206900966,9.00769928081,27.8796924674,0.378821040623,-0.00311654089827,0.0,900.222769676,900.762446669,900.7397024,900.490424097
3.960000000000003,-15.8464711921,13.1558863791,107.323589946,0.837553611927,0.388680948113,0.0,-10.6736829289,9.27406037023,27.9127505491,0.379296494233,0.00351284374661,0.0,900.497809867,900.766150678,900.239300857,900.327398696
4.020000000000002,-16.4944941376,13.7203872128,108.999498015,0.860339187061,0.39146563768,0.0,-10.9273700699,9.54304206095,27.95181892,0.380280348669,0.0199285544232,0.0,900.111319418,900.775719072,900.199594169,900.308530993
4.080000000000001,-17.1578044448,14.3011090916,110.677955889,0.883768843553,0.395019240552,0.0,-11.1833974547,9.81482316128,27.9979640196,0.387737219844,0.0355923024496,0.0,900.223562036,900.857368477,899.9662548,900.338563849
4.14,-17.8365662674,14.8982389734,112.359438955,0.9074133579,0.397224890656,0.0,-11.4423468747,10.0900158271,28.052839871,0.393396065446,0.0312531623765,0.0,900.770406397,900.594619219,899.921257296,900.223486699
4.199999999999998,-18.5309308076,15.5119751614,114.044496171,0.931079409099,0.399094352628,0.0,-11.7034689818,10.368356372,28.1172410054,0.395180183328,0.0309207521279,0.0,900.608226257,900.594562981,899.940858753,900.087921502
4.259999999999997,-19.2410281317,16.1425067627,115.733729863,0.954854596338,0.400939525691,0.0,-11.9668004888,10.649872301,28.1922325311,0.390949093082,0.0302018379919,0.0,900.466919578,900.43760295,900.123024686,900.026373541
4.319999999999996,-19.9669846792,16.7900040681,117.427793807,0.978328768422,0.402740535037,0.0,-12.2320679252,10.9337610632,28.2783056746,0.391620891773,0.0293304553264,0.0,900.16345922,900.127951319,900.061223565,900.162090508
4.379999999999995,-20.7089227287,17.4546128175,119.127391497,1.00313862765,0.40452160055,0.0,-12.4997240232,11.2206055394,28.3772337093,0.403026082197,0.0261332374725,0.0,900.070735516,899.941007093,899.808326015,900.345612111
4.439999999999993,-21.4670384226,18.1366064839,120.833424109,1.02951584327,0.406079971028,0.0,-12.7715463417,11.513703203,28.4934322273,0.418099775004,0.0254672660972,0.0,899.912450108,899.885226637,899.864728347,900.555685664
4.499999999999992,-22.2416346278,18.8364646217,122.547069946,1.05891068263,0.40760900804,0.0,-13.0495427443,11.8170110682,28.632064232,0.439667602309,0.0255163148429,0.0,899.918391404,899.920129641,899.667744665,900.629122274
4.559999999999991,-23.0331519736,19.5549385233,124.269842624,1.08605773066,0.409127990976,0.0,-13.3351537073,12.1333454971,28.7971612575,0.448133389938,0.0242930087981,0.0,900.039370687,899.989574379,899.991164384,900.429587638
4.6199999999999894,-23.8419791702,20.2926687189,126.003260479,1.11302877502,0.410686665918,0.0,-13.6265198512,12.458824805,28.9871545112,0.443552187615,0.0267769213221,0.0,900.037707021,900.138052385,900.48137166,900.393378714
4.679999999999988,-24.6684459326,21.0501622403,127.748851953,1.13980455264,0.412778895521,0.0,-13.9231191014,12.7919724095,29.2031834334,0.44692788993,0.0333043432879,0.0,899.842936535,900.107094983,900.551639161,900.784819632
4.739999999999987,-25.5128804576,21.8278895276,129.508257515,1.16790243155,0.414767410478,0.0,-14.2257087094,13.1338365767,29.4484066628,0.458187199857,0.0326245666373,0.0,900.172999124,900.145284692,900.419500833,900.974507914
4.799999999999986,-26.3756710466,22.626435944,131.283362747,1.19542387256,0.417173595707,0.0,-14.534917247,13.4857305602,29.7267966285,0.459236315707,0.0388599010948,0.0,900.044500107,900.296834904,900.449619727,900.595110635
4.859999999999984,-27.2572179774,23.4463873639,133.076235796,1.22387614875,0.421496652118,0.0,-14.8511751531,13.8476219994,30.0413911379,0.468483925872,0.0531650945106,0.0,900.209853518,900.788937819,900.01714072,900.496445404
4.919999999999983,-28.157997148,24.2884099243,134.889207671,1.25365476614,0.426814026926,0.0,-15.1763241021,14.2220658349,30.3977298485,0.481486185173,0.0679878473447,0.0,899.954036033,900.554691051,900.112850241,900.749132248
4.979999999999982,-29.0785841834,25.1533390785,136.724964636,1.28331611257,0.431984661925,0.0,-15.5114447642,14.6112793237,30.8015880735,0.489983815539,0.0782942103691,0.0,899.913559379,900.332018198,899.901149268,900.360910138
5.0399999999999805,-30.0195890598,26.0420968671,138.586512755,1.31347483225,0.439109527082,0.0,-15.8571006556,15.0165879648,31.2583516737,0.498403865514,0.0942024372688,0.0,899.534486547,900.180733714,899.865497371,900.326417976
