time,x,y,z,phi,theta,psi,x_velocity,y_velocity,z_velocity,phi_velocity,theta_velocity,psi_velocity,rotor_speed1,rotor_speed2,rotor_speed3,rotor_speed4
0.06,0.000100470880667,0.00461163156312,10.0043935131,3.89880474288,3.12743672214,0.0,-0.00053637403564,0.339935536668,-0.0479466772375,8.39846271318,-1.06387271276,0.0,299.648404106,109.968446467,318.978173799,852.413626829
0.12000000000000001,0.00276933530877,0.0299431282113,9.99914499002,2.88875319116,4.08644287416,0.0,-0.123279936343,0.391128604975,-0.286974986225,12.3425489103,-2.00137012204,0.0,281.219467381,94.2499095769,558.304271098,832.778192406
0.18,0.0198793197274,0.0498685042396,9.97095258255,0.329135238073,6.08419113157,0.0,0.678859779013,0.210885724124,-0.877889493736,15.0000838286,-2.50664577944,0.0,230.137282427,107.473887463,555.281253599,821.400179508
0.23999999999999996,0.0660810454534,0.0747597538979,9.91552104322,1.49226624193,6.03560185101,0.0,0.867034239624,0.542026348244,-1.34548881137,17.2855994983,-2.61838328284,0.0,246.245101224,214.952433528,485.444560582,804.219475111
0.3,0.125097807238,0.120698119902,9.82427370554,6.14024599557,5.93787297188,0.0,1.11234998394,0.725409139988,-1.88614561125,18.3634865632,-2.53520013997,0.0,252.906495118,251.997441566,491.486052123,790.355410862
0.36000000000000004,0.199073422488,0.163771005426,9.69975315866,6.14535214448,0.0193185713971,0.0,1.3042480779,0.536352110818,-2.47240679673,19.1426294328,-2.78539198422,0.0,212.45015762,142.21799196,525.640486315,819.675340936
0.4200000000000001,0.270421842703,0.193577839162,9.54096795936,0.806606856948,1.48231281083,0.0,0.922756445822,0.408083633642,-2.94137359225,19.9853739395,-3.22879346871,0.0,257.706391357,160.347720609,445.01165219,792.574139062
0.48000000000000015,0.303088689414,0.218151515139,9.34761309428,2.79443831211,1.39327251975,0.0,0.166747992739,0.418843630237,-3.49805668147,20.8933673668,-3.34207321733,0.0,194.986366383,139.184342449,400.145819717,792.909975313
0.5400000000000001,0.285126660728,0.241594621412,9.11689170197,5.65804607782,0.205642853526,0.0,-0.738265576185,0.242947971148,-4.14391147598,20.4584065818,-4.80677568995,0.0,369.665133357,124.255118793,511.758219624,805.328277615
0.6000000000000002,0.233383407786,0.249414372185,8.86962257754,0.97248994146,0.773786953352,0.0,-1.05327993495,0.182629434255,-4.10786472633,20.2490928505,-5.12840053924,0.0,262.589140526,148.203603335,453.935331256,771.532863683
0.6600000000000003,0.165230222662,0.270699933151,8.61200396788,3.4348065619,3.62437188995,0.0,-1.28165936809,0.400635297931,-4.56007219413,19.8658136553,-6.97047187466,0.0,425.16153528,118.224294904,505.138144753,787.89436407
0.7200000000000003,0.0989927321719,0.309362432148,8.3342790489,5.77864763847,3.24596084704,0.0,-0.968893653243,1.01468336421,-4.94611652063,19.4974107737,-6.90269356528,0.0,242.741233486,129.864261277,546.218653068,806.480628667
0.7800000000000004,0.0420903246814,0.373636781638,7.99960035909,1.16678701695,2.95331873459,0.0,-0.960701165227,0.936926373693,-6.19420053885,19.2536292678,-6.78333802922,0.0,242.525390748,147.271044151,489.18334715,766.846182572
0.8400000000000004,-0.0211493053596,0.406824360977,7.60897758105,2.67735420455,2.72971995268,0.0,-1.16933807145,0.210575868222,-6.65567256223,19.4562747609,-6.63639843311,0.0,284.335738053,217.758609003,467.725420763,772.876361765
0.9000000000000005,-0.101696435254,0.417267814765,7.21088378891,4.43109907948,2.33350147908,0.0,-1.56143869028,0.314031144415,-6.65763048108,19.1928407441,-6.62225507404,0.0,273.192365099,181.174233316,494.261399528,768.13570836
0.9600000000000005,-0.212192592846,0.447664533602,6.79047178008,0.916459546401,2.04134511375,0.0,-2.12386509126,0.561698081288,-7.46572843787,18.7561041099,-6.51129015236,0.0,262.749974391,186.908694796,471.497259531,736.856926021
1.0200000000000005,-0.343333329181,0.474409764056,6.32447390197,4.12183412798,0.107800291129,0.0,-1.99655287087,0.492645240843,-7.85003234413,17.4423988401,-8.19263713895,0.0,449.392574962,173.853126457,576.910269676,749.77923664
1.0800000000000005,-0.475193253258,0.490044196336,5.8311874513,4.49186891579,2.32110547913,0.0,-2.57047017448,0.181163576492,-8.42998044786,15.5368369266,-7.62518852588,0.0,338.480028459,306.090717632,568.60843523,676.402515891
1.1400000000000006,-0.646307694095,0.50817984966,5.31175136006,2.54038810341,1.88183462286,0.0,-3.13388934727,0.310251423658,-8.96544384346,14.4651683653,-7.57972274545,0.0,331.745367385,238.756820477,522.89930488,647.04828113
1.2000000000000006,-0.842780512011,0.52598157182,4.75693491552,3.54554136673,5.90489011061,0.0,-3.29398760185,0.322797892306,-9.48305659872,14.5912747856,-6.44624491526,0.0,243.972921242,302.904884547,437.667505192,636.965101532
1.2600000000000007,-1.03218130092,0.533063177858,4.15932655812,6.24327819618,5.5527557306,0.0,-2.98334884744,-0.127721055168,-10.2319799874,14.125041141,-6.51188864155,0.0,317.619088464,235.281865431,534.66729665,674.078306046
1.3200000000000007,-1.20492073479,0.525364121837,3.52885961583,0.226733861834,0.308120249222,0.0,-2.84463916128,-0.292610368001,-10.8847134083,13.3013423845,-6.09947023039,0.0,309.165154482,293.481387174,508.321274865,620.099329578
1.3800000000000008,-1.3864728206,0.514747795698,2.86803778986,3.06367333393,1.5679558157,0.0,-3.30498216797,-0.0356982887742,-11.2535719361,13.7921982333,-6.54194483573,0.0,373.663069992,263.305639297,452.408097148,645.96813261
1.4400000000000008,-1.60039635709,0.507297954025,2.17820484178,1.07110902143,4.1691019157,0.0,-3.64280914529,-0.336136508736,-11.8487213755,11.7553839129,-5.17812926576,0.0,308.386046893,398.094806216,482.234942103,500.437750048
1.5000000000000009,-1.81233704284,0.478010874443,1.45103068683,2.48661290954,3.11101372164,0.0,-3.57106403209,-0.435983193511,-12.4169050263,11.463385389,-3.26206801251,0.0,342.711595519,486.741196383,378.246620565,503.877321081
1.560000000000001,-2.02405999172,0.448912160747,0.690668282248,2.08990138013,3.82961045821,0.0,-3.41461942998,-0.443034868096,-13.1191665643,8.89074118424,-3.59443357176,0.0,393.53779776,345.8030751,558.7963435,483.321940223
1.620000000000001,-2.2193712617,0.417424506157,0.0,4.49545125678,3.61420561973,0.0,-3.13524871666,-0.471504277579,-13.4174039779,9.36234336221,-3.60138765339,0.0,452.930441031,438.220045854,415.48452835,535.631560338
